ECG
0.02
0.03
0.06
0.02
-0.005
-0.07
-0.045
-0.105
-0.075
-0.11
-0.075
-0.125
-0.095
-0.09
-0.075
-0.14
-0.25
-0.275
-0.145
1.005
0.705
0.695
0.58
0.315
0.09
-0.015
-0.04
-0.095
-0.1
-0.12
-0.095
-0.14
-0.085
-0.115
-0.105
-0.11
-0.1
-0.145
-0.115
-0.14
-0.135
-0.14
-0.14
-0.115
-0.115
-0.12
-0.08
-0.075
-0.02
-0.02
0.0
0.01
0.025
-0.03
0.005
-0.04
-0.01
0.0
-0.06
-0.035
-0.01
-0.05
-0.06
0.005
-0.1
-0.05
0.05
0.01
0.025
0.07
0.06
0.08
0.005
-0.01
-0.025
-0.08
-0.15
0.005
-0.085
-0.08
-0.06
-0.06
-0.17
-0.095
-0.03
-0.235
-0.35
0.305
1.045
0.925
0.495
0.515
0.245
0.07
-0.025
-0.24
0.115
0.085
-0.25
-0.305
0.03
-0.12
-0.235
-0.11
-0.035
-0.175
-0.135
-0.175
-0.05
-0.215
-0.24
-0.03
-0.15
-0.135
-0.13
-0.15
-0.075
-0.06
-0.065
-0.07
0.02
-0.035
0.04
-0.025
-0.135
-0.005
-0.045
-0.12
-0.085
-0.05
-0.07
-0.1
-0.085
-0.13
-0.045
0.035
0.02
0.08
0.02
0.05
0.055
-0.01
0.005
-0.07
-0.1
-0.085
-0.105
-0.03
-0.04
-0.055
-0.06
-0.085
-0.235
-0.2
-0.39
0.365
1.18
0.695
0.8
0.355
0.195
0.105
-0.145
-0.11
0.01
-0.015
-0.385
0.185
-0.095
-0.21
-0.305
0.075
0.1
-0.205
-0.085
-0.1
-0.06
-0.06
-0.07
-0.105
-0.065
-0.085
-0.06
-0.065
-0.03
0.02
0.015
0.03
0.045
0.04
0.045
0.075
0.135
0.15
0.095
0.025
0.0
-0.085
-0.11
-0.095
-0.045
0.105
0.185
0.17
0.34
-0.18
-0.135
0.02
0.0
0.115
0.545
-0.045
-0.185
-0.18
-0.14
-0.16
-0.06
-0.095
-0.05
-0.08
-0.27
-0.26
0.025
1.235
0.71
0.73
0.465
0.22
0.125
-0.06
-0.01
0.425
-0.075
-0.44
-0.17
-0.125
-0.1
-0.125
-0.1
-0.135
-0.12
-0.165
-0.13
-0.16
-0.155
-0.175
-0.155
-0.175
-0.13
-0.14
-0.12
-0.115
-0.05
-0.05
-0.04
-0.03
-0.02
-0.025
-0.025
-0.035
-0.05
-0.045
-0.065
-0.065
-0.06
-0.06
-0.08
-0.06
-0.02
-0.005
-0.005
0.085
0.07
0.075
0.05
-0.015
-0.06
-0.055
-0.07
-0.055
-0.08
-0.06
-0.07
-0.045
-0.055
-0.035
-0.17
-0.195
-0.255
0.37
1.21
0.77
0.705
0.5
0.235
0.42
0.38
-0.12
-0.275
-0.22
-0.115
-0.005
0.355
0.675
0.17
-0.28
-0.395
-0.44
-0.225
-0.15
-0.17
-0.155
-0.18
-0.155
-0.17
-0.155
-0.165
-0.13
-0.125
-0.09
-0.08
-0.06
-0.07
-0.055
-0.07
-0.06
-0.08
-0.07
-0.08
-0.085
-0.105
-0.07
-0.085
-0.06
-0.065
0.0
-0.025
0.035
0.05
0.07
0.03
0.02
-0.06
-0.04
-0.085
-0.06
-0.105
-0.07
-0.105
-0.055
-0.095
-0.055
-0.115
-0.22
-0.255
-0.17
0.96
0.79
0.78
0.605
0.335
0.11
-0.015
-0.03
-0.085
-0.065
-0.105
-0.08
-0.12
-0.085
-0.12
-0.1
-0.12
-0.11
-0.135
-0.12
-0.145
-0.135
-0.155
-0.135
-0.145
-0.13
-0.135
-0.1
-0.095
-0.05
-0.055
-0.035
-0.035
-0.02
-0.03
-0.02
-0.045
-0.03
-0.06
-0.055
-0.07
-0.055
-0.08
-0.055
-0.055
0.0
-0.03
0.04
0.05
0.06
0.03
0.02
-0.07
-0.04
-0.095
-0.06
-0.1
-0.065
-0.1
-0.06
-0.095
-0.045
-0.11
-0.24
-0.285
-0.17
1.01
0.75
0.745
0.615
0.37
0.135
-0.005
-0.03
-0.075
-0.06
-0.1
-0.07
-0.105
-0.085
-0.115
-0.08
-0.115
-0.095
-0.125
-0.12
-0.135
-0.12
-0.145
-0.135
-0.135
-0.12
-0.12
-0.095
-0.09
-0.05
-0.03
-0.02
-0.015
-0.005
-0.005
0.0
-0.02
-0.03
-0.025
-0.05
-0.025
-0.045
-0.03
-0.015
0.015
-0.01
0.06
0.07
0.085
0.06
0.06
-0.01
-0.005
-0.055
-0.02
-0.04
-0.02
-0.04
-0.03
-0.07
-0.01
-0.05
-0.185
-0.235
-0.2
0.895
0.795
0.775
0.69
0.47
0.225
0.04
0.005
-0.03
-0.02
-0.05
-0.045
-0.07
-0.04
-0.08
-0.075
-0.09
-0.065
-0.11
-0.1
-0.13
-0.1
-0.11
-0.145
-0.145
-0.11
-0.11
-0.1
-0.075
-0.04
-0.03
0.0
-0.01
0.01
0.0
0.0
0.005
-0.01
-0.045
0.0
-0.02
-0.02
-0.005
0.055
-0.015
0.095
0.085
0.08
0.075
0.045
-0.015
-0.02
-0.04
0.0
-0.06
-0.01
-0.05
-0.005
-0.03
0.0
-0.075
-0.195
-0.14
-0.09
0.945
0.715
0.735
0.665
0.445
0.215
0.025
0.015
-0.035
-0.03
-0.075
-0.06
-0.085
-0.055
-0.1
-0.105
-0.13
-0.07
-0.12
-0.135
-0.15
-0.18
-0.19
-0.155
-0.155
-0.2
-0.15
-0.125
-0.12
-0.065
-0.045
0.01
0.02
0.0
0.005
0.045
0.0
0.01
0.0
0.01
-0.025
0.005
0.01
0.0
0.055
0.1
0.07
0.105
0.095
0.015
-0.01
-0.03
-0.04
0.0
-0.05
-0.015
-0.035
-0.03
-0.02
0.0
-0.13
-0.14
-0.205
0.215
1.01
0.69
0.66
0.515
0.265
0.075
0.005
-0.03
-0.045
-0.065
-0.09
-0.07
-0.1
-0.07
-0.105
-0.095
-0.13
-0.105
-0.135
-0.145
-0.165
-0.195
-0.17
-0.17
-0.2
-0.18
-0.16
-0.145
-0.11
-0.06
-0.035
-0.015
-0.005
-0.02
0.0
0.01
0.0
-0.03
-0.015
-0.005
0.0
0.01
-0.015
0.075
0.085
0.075
0.11
0.08
0.035
-0.025
-0.055
-0.06
-0.055
-0.07
-0.03
-0.06
-0.04
-0.05
-0.06
-0.125
-0.11
-0.21
0.34
0.905
0.65
0.635
0.45
0.18
0.015
-0.035
0.0
-0.065
-0.08
-0.105
-0.08
-0.11
-0.115
-0.1
-0.11
-0.115
-0.1
-0.15
-0.185
-0.14
-0.18
-0.195
-0.22
-0.205
-0.17
-0.19
-0.145
-0.105
-0.085
-0.06
-0.01
-0.02
-0.04
-0.045
-0.025
-0.03
-0.015
-0.045
-0.03
0.0
-0.005
-0.015
0.065
0.075
0.075
0.07
0.025
-0.03
-0.05
-0.055
-0.03
-0.115
-0.075
-0.115
-0.095
-0.105
-0.08
-0.105
-0.175
-0.125
-0.19
0.535
0.64
0.635
0.565
0.29
0.085
-0.06
-0.06
-0.08
-0.06
-0.09
-0.045
-0.07
-0.06
-0.06
-0.07
-0.09
-0.085
-0.13
-0.115
-0.14
-0.155
-0.175
-0.175
-0.17
-0.16
-0.16
-0.13
-0.085
-0.06
-0.03
-0.02
-0.01
0.0
-0.01
0.005
-0.015
0.005
-0.01
0.0
-0.03
-0.005
-0.005
0.02
0.0
0.06
0.07
0.075
0.04
0.045
-0.05
-0.02
-0.065
-0.05
-0.075
-0.045
-0.08
-0.055
-0.08
-0.045
-0.09
-0.16
-0.215
-0.105
0.825
0.64
0.705
0.525
0.235
0.06
-0.03
-0.03
-0.095
-0.06
-0.095
-0.08
-0.12
-0.08
-0.12
-0.1
-0.13
-0.11
-0.14
-0.13
-0.145
-0.135
-0.155
-0.165
-0.175
-0.155
-0.155
-0.13
-0.11
-0.055
-0.045
-0.035
-0.02
-0.02
-0.01
-0.03
-0.01
-0.03
-0.01
-0.03
-0.03
-0.05
-0.02
-0.025
0.015
0.0
0.045
0.075
0.07
0.065
0.055
-0.035
-0.025
-0.055
-0.035
-0.07
-0.035
-0.075
-0.045
-0.07
-0.035
-0.075
-0.155
-0.195
-0.185
0.805
0.745
0.78
0.595
0.32
0.11
0.0
-0.015
-0.065
-0.055
-0.095
-0.075
-0.095
-0.085
-0.11
-0.09
-0.12
-0.115
-0.125
-0.125
-0.16
-0.16
-0.17
-0.145
-0.165
-0.15
-0.145
-0.11
-0.085
-0.055
-0.03
-0.025
-0.015
-0.01
-0.015
-0.025
-0.005
-0.02
-0.005
-0.035
-0.01
-0.03
-0.015
-0.03
-0.02
-0.035
0.0
-0.01
0.035
0.015
0.08
0.09
0.105
0.06
0.045
-0.025
0.0
-0.045
0.0
-0.055
-0.005
-0.045
-0.01
-0.06
-0.005
-0.05
-0.135
-0.25
-0.09
1.045
0.76
0.835
0.645
0.345
0.135
0.035
0.01
-0.035
-0.02
-0.055
-0.035
-0.05
-0.045
-0.06
-0.04
-0.095
-0.115
-0.115
-0.105
-0.105
-0.14
-0.16
-0.14
-0.14
-0.145
-0.155
-0.085
-0.095
-0.02
-0.045
0.01
0.0
-0.02
-0.03
-0.01
0.05
0.06
-0.04
-0.065
-0.02
-0.035
-0.075
0.0
-0.015
0.0
-0.02
0.01
0.075
0.045
-0.04
0.085
0.065
0.11
0.045
-0.02
0.0
0.0
-0.06
0.0
-0.08
-0.02
-0.04
-0.01
-0.06
-0.01
-0.08
-0.17
-0.27
0.055
1.07
0.7
0.73
0.58
0.34
0.115
0.0
0.015
-0.005
-0.03
-0.065
-0.02
-0.115
-0.055
-0.07
-0.075
-0.07
-0.1
-0.1
-0.17
-0.135
-0.12
-0.135
-0.15
-0.2
-0.105
-0.145
-0.1
-0.13
-0.03
0.0
0.01
-0.03
0.005
0.01
-0.01
0.015
0.01
0.025
-0.08
0.035
0.005
-0.03
-0.035
-0.04
0.005
0.01
0.07
0.035
-0.025
0.08
0.125
0.105
0.115
0.025
-0.035
-0.08
-0.075
-0.015
-0.015
-0.07
-0.03
-0.06
-0.1
-0.05
-0.085
-0.105
-0.235
0.295
0.895
0.705
0.625
0.465
0.28
0.1
-0.035
-0.05
-0.06
-0.05
-0.05
-0.065
-0.075
-0.035
-0.05
-0.125
-0.1
-0.1
-0.14
-0.135
-0.135
-0.155
-0.1
-0.21
-0.115
-0.08
-0.225
-0.115
-0.055
-0.035
0.06
0.005
-0.01
0.035
0.02
0.0
-0.025
0.05
-0.02
0.0
0.075
0.105
-0.025
-0.055
-0.025
0.015
0.04
0.045
0.025
0.155
0.165
0.115
0.205
-0.005
-0.035
0.01
-0.01
0.055
-0.195
0.025
-0.1
-0.15
0.02
0.0
-0.02
-0.18
-0.1
-0.005
0.905
0.43
0.705
0.555
0.155
-0.005
-0.09
-0.07
-0.115
-0.015
-0.08
-0.04
-0.095
-0.17
0.02
-0.07
-0.2
-0.235
-0.09
-0.18
-0.08
0.17
-0.285
-0.14
-0.445
-0.27
-0.195
-0.01
-0.155
-0.15
-0.15
-0.11
-0.12
0.145
-0.155
-0.065
0.16
-0.03
-0.025
-0.055
-0.21
-0.16
0.015
0.06
-0.105
-0.075
0.165
0.06
-0.17
0.125
0.355
0.24
0.165
-0.06
0.285
0.005
-0.115
0.155
0.0
-0.315
-0.05
0.145
-0.03
-0.145
0.18
-0.005
-0.045
0.23
0.855
0.34
0.945
0.46
0.22
0.12
0.09
0.13
-0.21
0.37
-0.095
0.025
-0.17
0.095
-0.05
-0.295
0.175
-0.395
-0.015
0.29
-0.69
-0.22
-0.19
0.025
-0.035
-0.49
0.065
0.03
-0.17
-0.255
-0.31
-0.04
0.21
-0.025
-0.035
-0.075
-0.09
-0.12
0.405
-0.14
-0.16
0.05
-0.135
0.165
-0.11
0.21
-0.1
0.085
0.115
-0.315
0.295
0.22
0.42
-0.075
-0.25
0.315
0.22
0.035
-0.46
0.535
-0.09
0.19
-0.18
-0.49
-0.275
0.04
-0.14
0.065
-0.065
0.85
1.22
0.005
0.585
-0.305
0.055
0.23
-0.135
-0.23
-0.205
-0.01
0.035
-0.505
0.24
0.155
-0.645
-0.105
0.07
0.13
-0.44
-0.385
-0.16
-0.045
0.38
-0.595
-0.23
0.25
-0.72
-0.175
0.305
0.385
-0.165
-0.605
0.29
-0.31
0.235
0.055
-0.445
0.595
-0.22
-0.21
-0.095
0.005
-0.445
0.3
0.14
-0.395
0.735
-0.405
-0.375
0.26
0.18
0.195
-0.145
0.23
-0.265
0.215
-0.12
-0.245
0.43
-0.185
-0.435
0.495
-0.405
-0.18
-0.285
0.165
0.09
-0.69
0.655
0.71
0.825
-0.075
0.275
0.16
0.07
-0.06
-0.125
-0.125
-0.57
0.15
0.58
-0.235
-0.525
-0.045
0.135
-0.335
0.14
-0.175
0.4
-0.68
0.36
-0.53
-0.01
0.86
-1.01
-0.345
0.285
0.29
-0.38
0.025
-0.24
0.225
0.075
-0.455
0.385
0.02
-0.565
0.42
0.19
-0.28
-0.335
0.095
0.27
-0.05
-0.44
0.23
0.14
0.705
-0.78
-0.2
0.235
0.695
-0.04
-0.395
0.57
-0.42
0.085
-0.22
0.37
-0.385
-0.19
0.535
0.07
-0.72
0.33
-0.145
-0.515
0.43
0.75
0.62
0.945
0.185
0.185
-0.235
0.04
-0.05
-0.185
0.49
-0.515
0.295
-0.02
0.0
-0.165
-0.36
-0.215
-0.095
0.005
-0.17
-0.12
-0.03
0.185
-0.34
0.2
-0.275
-0.535
-0.085
-0.075
0.25
-0.485
0.21
-0.115
0.24
-0.04
-0.365
0.285
0.055
-0.37
0.09
0.135
-0.245
-0.13
0.2
-0.06
-0.2
0.365
-0.01
-0.21
-0.23
0.54
-0.43
0.885
-0.115
-0.105
-0.24
0.005
0.4
-0.205
-0.125
-0.245
0.89
-1.05
0.26
-0.26
-0.145
-0.07
0.31
-0.295
-0.155
1.295
0.455
0.8
0.1
0.065
-0.09
-0.03
0.355
-0.145
0.005
-0.405
0.21
0.005
-0.5
0.47
-0.685
0.055
-0.15
-0.04
0.57
-0.845
-0.175
0.14
-0.26
0.02
-0.135
-0.15
-0.235
-0.395
0.0
0.8
-0.235
-0.21
-0.095
0.13
0.12
-0.42
0.08
0.045
0.39
0.02
-0.385
-0.055
0.205
-0.115
-0.355
0.39
0.325
-0.37
-0.18
0.125
0.7
-0.475
0.28
0.125
-0.255
-0.155
-0.115
0.425
-0.165
-0.27
0.13
-0.06
-0.325
0.035
-0.14
0.075
-0.275
-0.165
0.475
0.9
0.63
0.21
0.31
0.465
-0.415
-0.01
-0.24
0.0
0.07
0.425
-0.565
-0.1
0.215
-0.455
-0.085
0.13
0.0
0.005
-0.22
-0.43
-0.005
-0.33
0.045
-0.15
-0.155
0.205
-0.31
-0.2
0.09
-0.25
-0.035
0.035
0.095
-0.175
0.01
-0.29
-0.07
0.215
0.04
-0.05
-0.26
-0.025
0.41
-0.505
-0.09
0.07
-0.08
0.135
0.2
-0.2
0.12
0.13
0.135
0.105
0.07
0.365
-0.16
0.235
-0.24
0.25
0.095
0.055
-0.145
-0.06
-0.015
-0.11
0.145
-0.17
-0.26
0.68
0.93
0.87
0.52
0.17
0.42
-0.16
0.21
-0.2
0.0
0.025
-0.19
-0.22
-0.165
0.04
-0.165
-0.02
-0.035
-0.055
-0.22
-0.205
-0.18
0.085
-0.21
-0.08
0.12
-0.425
-0.155
-0.055
-0.13
-0.005
0.195
-0.06
0.04
-0.175
-0.1
0.075
0.1
0.07
-0.355
-0.14
-0.045
-0.015
-0.015
0.16
-0.23
0.07
0.165
-0.22
-0.08
0.095
0.065
-0.005
0.13
0.085
0.165
0.195
0.03
0.02
0.18
0.26
-0.105
-0.28
-0.24
-0.025
0.14
-0.385
-0.015
-0.23
-0.16
-0.115
0.14
1.3
0.84
0.715
0.4
-0.015
-0.07
-0.105
0.0
0.035
-0.05
-0.13
0.05
0.09
-0.155
-0.11
0.075
-0.185
-0.12
-0.035
-0.075
-0.2
-0.1
-0.085
0.01
0.005
0.0
-0.165
-0.04
-0.135
-0.06
0.19
-0.165
-0.06
0.01
-0.035
-0.015
0.0
-0.07
0.055
-0.03
-0.09
0.27
0.075
-0.445
-0.12
-0.005
-0.01
-0.025
-0.06
0.0
-0.045
-0.04
0.08
0.19
0.045
-0.185
0.03
0.135
0.12
0.07
-0.07
-0.04
0.0
-0.05
0.22
-0.27
-0.085
-0.17
-0.115
-0.07
-0.035
0.005
-0.275
-0.24
0.315
1.17
0.76
0.66
0.355
0.11
0.04
0.04
-0.045
-0.005
-0.16
-0.115
-0.03
-0.025
-0.045
-0.015
-0.23
-0.045
-0.085
-0.155
-0.075
-0.07
-0.12
-0.17
0.05
-0.235
-0.09
-0.04
-0.14
-0.09
-0.085
0.01
0.06
-0.07
0.07
0.02
0.02
0.02
-0.115
-0.06
-0.005
0.03
-0.085
0.005
-0.005
-0.095
-0.06
-0.01
0.1
-0.095
-0.14
0.005
0.01
-0.02
0.055
-0.09
0.0
0.025
-0.02
0.165
0.12
0.08
0.135
0.11
-0.17
-0.095
-0.075
-0.05
0.025
-0.09
-0.065
-0.05
-0.17
-0.04
-0.155
-0.175
-0.2
0.54
1.17
0.745
0.655
0.17
0.095
0.05
0.01
0.0
-0.085
0.035
0.025
-0.16
-0.12
0.0
-0.13
-0.07
-0.025
-0.14
-0.135
-0.1
-0.025
-0.125
-0.125
-0.11
-0.075
-0.215
-0.085
-0.015
-0.11
0.01
-0.04
0.005
-0.05
0.015
0.085
-0.025
0.0
-0.06
0.005
-0.045
-0.06
-0.065
-0.035
-0.06
0.01
0.09
-0.085
-0.065
-0.065
-0.01
-0.085
0.015
0.0
-0.04
0.015
-0.125
0.03
0.095
0.05
0.105
0.05
0.14
0.085
-0.04
-0.1
-0.1
-0.06
-0.09
-0.025
-0.055
0.05
-0.145
0.075
-0.12
-0.28
-0.23
-0.105
0.945
0.87
0.73
0.535
0.165
0.13
0.115
-0.145
-0.095
-0.045
-0.035
-0.015
-0.075
-0.05
-0.13
-0.075
-0.065
-0.13
-0.09
-0.005
-0.11
-0.11
-0.14
-0.18
-0.11
-0.1
-0.04
-0.09
-0.125
-0.035
-0.055
0.05
0.09
-0.065
-0.03
-0.03
0.0
0.08
-0.07
-0.045
0.03
-0.08
-0.015
0.01
-0.055
0.035
-0.07
-0.085
0.005
-0.035
-0.06
0.19
-0.175
-0.025
-0.085
-0.055
0.005
0.025
0.05
0.175
0.265
-0.065
0.015
0.05
-0.125
-0.075
0.035
-0.12
-0.115
0.015
-0.015
-0.105
-0.08
0.0
-0.21
-0.175
-0.21
0.385
1.26
0.615
0.725
0.27
0.06
0.02
0.0
0.045
-0.095
-0.07
-0.1
0.015
-0.085
-0.055
-0.135
-0.055
-0.095
-0.125
-0.12
-0.04
-0.085
-0.21
-0.135
-0.125
-0.14
-0.13
-0.055
-0.04
-0.155
0.03
-0.015
0.0
0.055
-0.115
0.005
0.015
-0.015
-0.055
0.01
0.055
-0.175
-0.08
0.0
-0.015
0.06
-0.05
-0.1
-0.06
-0.045
-0.025
0.14
-0.14
-0.105
-0.01
0.03
-0.005
0.1
0.08
0.085
0.255
-0.075
-0.015
-0.035
-0.065
-0.145
0.01
-0.095
-0.055
-0.04
-0.13
-0.04
-0.09
-0.09
-0.17
-0.2
0.745
0.79
0.785
0.67
0.19
0.095
0.01
0.06
-0.09
-0.025
-0.085
-0.02
0.035
-0.11
-0.155
-0.14
0.01
-0.1
-0.12
-0.02
-0.22
-0.105
-0.035
-0.145
-0.065
-0.12
-0.16
-0.145
0.0
0.12
-0.185
0.04
-0.005
0.0
0.015
0.055
-0.025
-0.06
0.04
0.095
-0.135
-0.08
0.08
-0.125
-0.07
-0.065
0.03
-0.04
-0.025
-0.075
-0.015
-0.09
-0.055
-0.035
0.01
-0.09
0.115
0.18
-0.105
0.04
0.105
-0.165
-0.01
-0.16
-0.1
0.04
-0.16
-0.055
-0.125
-0.04
-0.13
-0.14
-0.105
-0.18
0.065
0.92
0.515
0.635
0.555
0.21
0.055
0.095
0.01
-0.145
0.005
-0.11
0.045
-0.245
-0.115
0.0
-0.15
-0.105
0.01
-0.15
-0.165
-0.08
-0.145
-0.085
-0.275
-0.15
-0.155
-0.125
0.195
-0.265
-0.165
-0.045
-0.03
0.07
0.075
-0.09
-0.02
-0.085
-0.075
0.055
-0.155
-0.03
0.01
-0.12
0.045
-0.09
0.075
-0.235
-0.04
0.02
-0.075
0.125
-0.115
0.09
0.025
0.165
-0.03
0.015
-0.1
0.03
-0.025
-0.07
-0.055
-0.13
-0.025
-0.085
0.055
-0.12
-0.18
-0.135
-0.15
0.05
0.575
0.665
0.685
0.61
0.46
0.31
-0.08
-0.015
0.05
-0.195
0.0
-0.155
-0.07
-0.085
-0.06
-0.105
-0.145
-0.08
-0.185
-0.15
-0.215
-0.065
-0.125
-0.375
-0.2
-0.105
-0.3
-0.165
-0.075
0.015
-0.06
0.1
-0.17
-0.055
-0.005
-0.04
0.0
0.04
-0.07
-0.03
0.075
-0.125
0.045
-0.085
-0.02
-0.02
0.01
-0.03
-0.07
0.0
-0.055
0.065
0.1
0.1
0.205
-0.11
-0.075
-0.105
0.02
-0.1
-0.125
0.145
-0.11
-0.07
-0.13
-0.035
-0.11
-0.05
-0.205
-0.01
0.735
0.66
0.735
0.57
0.315
0.27
0.02
-0.125
-0.025
-0.08
-0.055
-0.045
-0.17
-0.065
-0.065
-0.11
-0.02
-0.12
-0.115
-0.05
-0.205
-0.05
-0.25
-0.045
-0.245
-0.215
-0.08
-0.155
-0.015
-0.09
0.1
0.02
-0.13
-0.005
0.0
-0.095
0.035
-0.085
-0.005
0.05
-0.03
0.015
-0.03
0.015
-0.005
-0.05
-0.17
0.005
0.025
0.005
0.13
0.085
0.21
-0.05
0.05
-0.075
-0.025
0.0
-0.16
0.0
-0.03
-0.095
-0.125
-0.03
-0.04
-0.135
-0.09
-0.155
0.19
0.91
0.745
0.61
0.48
0.17
0.0
0.0
0.015
-0.085
-0.08
-0.035
-0.025
-0.15
-0.015
-0.105
-0.11
-0.06
-0.1
-0.105
-0.18
-0.17
-0.13
-0.18
-0.015
-0.235
-0.145
-0.045
-0.085
-0.115
0.03
0.05
0.005
-0.04
-0.09
-0.07
-0.08
0.07
0.04
0.03
-0.15
-0.065
-0.025
0.01
-0.005
-0.08
-0.015
0.04
0.0
0.17
0.135
0.15
-0.09
0.16
-0.02
-0.145
-0.115
-0.075
-0.065
-0.04
-0.115
0.0
0.09
-0.13
-0.115
-0.19
-0.255
0.075
1.03
0.57
0.67
0.47
0.255
0.115
-0.035
0.0
-0.04
-0.02
-0.125
-0.115
-0.125
0.05
-0.125
-0.135
-0.13
-0.11
-0.09
-0.02
-0.185
-0.14
-0.115
-0.15
-0.07
-0.26
-0.09
-0.095
-0.025
-0.045
-0.05
0.03
-0.125
0.025
0.07
-0.135
0.0
0.06
-0.025
-0.105
-0.01
-0.01
-0.075
-0.005
-0.05
0.015
0.175
-0.03
-0.01
0.095
0.175
0.02
0.025
0.08
-0.16
-0.135
-0.09
-0.07
0.065
0.03
-0.055
-0.185
-0.11
-0.055
-0.065
-0.41
0.3
0.965
0.61
0.545
0.485
0.44
-0.14
-0.01
0.025
0.045
-0.165
-0.075
-0.05
-0.08
0.02
-0.22
-0.14
-0.13
-0.07
-0.085
-0.135
-0.21
-0.08
-0.185
-0.065
-0.075
-0.28
-0.13
-0.065
-0.07
-0.14
0.01
0.04
-0.12
-0.03
-0.02
0.035
-0.045
-0.035
-0.07
0.03
0.0
-0.07
0.135
-0.205
-0.035
-0.03
0.0
0.0
0.175
0.005
0.06
0.0
0.095
-0.09
-0.07
0.13
-0.17
0.01
-0.125
-0.225
-0.095
-0.065
-0.02
-0.135
-0.11
-0.305
0.1
1.085
0.405
0.635
0.54
0.3
0.065
-0.04
-0.03
-0.055
0.06
-0.045
-0.19
-0.14
-0.06
-0.13
-0.025
-0.15
-0.115
-0.05
-0.095
-0.145
-0.21
-0.175
-0.155
-0.1
-0.07
-0.155
-0.12
-0.12
0.015
-0.06
0.025
-0.015
-0.02
-0.01
-0.04
-0.005
-0.125
0.045
0.0
-0.08
-0.075
-0.045
-0.035
0.035
-0.055
-0.025
0.055
0.02
0.145
0.01
0.15
-0.03
-0.045
0.005
-0.06
-0.125
0.0
-0.06
-0.075
-0.09
0.03
-0.095
-0.045
-0.035
-0.2
-0.3
0.02
0.97
0.7
0.855
0.375
0.235
0.14
-0.01
0.01
-0.03
-0.025
-0.12
-0.035
-0.125
-0.005
-0.095
-0.06
-0.07
-0.21
-0.15
-0.085
-0.06
-0.2
-0.175
-0.05
-0.11
-0.15
-0.1
-0.135
-0.005
-0.035
-0.12
-0.045
-0.015
-0.04
-0.04
0.03
0.005
-0.06
-0.065
0.005
-0.075
-0.095
-0.055
-0.04
-0.04
-0.005
-0.065
0.005
0.055
0.065
0.135
-0.045
0.065
0.005
-0.07
-0.045
-0.01
-0.01
-0.115
-0.06
-0.05
-0.065
-0.07
-0.095
0.0
-0.07
-0.17
-0.18
-0.335
0.605
0.925
0.77
0.63
0.37
0.13
0.045
0.09
-0.025
-0.03
-0.15
-0.11
-0.085
-0.04
-0.105
-0.135
-0.1
-0.115
-0.13
-0.135
-0.045
-0.09
-0.18
-0.06
-0.165
-0.18
-0.175
-0.11
-0.03
-0.01
-0.095
-0.115
-0.04
0.0
-0.03
0.045
-0.08
-0.03
-0.07
-0.03
-0.08
-0.04
-0.08
-0.08
-0.06
-0.015
0.015
-0.005
0.095
-0.05
0.025
0.03
0.1
0.1
0.015
-0.105
-0.065
-0.02
-0.005
-0.115
-0.04
-0.015
-0.165
-0.07
-0.015
-0.035
-0.08
-0.215
-0.47
0.28
0.975
0.765
0.7
0.5
0.32
0.03
-0.085
-0.075
-0.025
-0.01
-0.06
-0.175
0.025
0.03
-0.145
-0.215
-0.195
-0.115
-0.11
-0.06
0.055
-0.03
-0.325
-0.24
-0.12
-0.085
-0.12
-0.08
-0.055
0.075
0.035
-0.07
-0.07
-0.09
-0.03
-0.05
0.055
0.005
-0.125
-0.045
0.0
0.06
-0.075
-0.1
0.0
0.02
0.015
0.04
0.07
0.055
0.015
0.095
0.08
-0.045
0.02
0.13
-0.01
-0.15
-0.155
0.05
-0.065
-0.055
0.0
-0.085
-0.04
-0.15
-0.165
-0.435
0.34
0.985
0.945
0.845
0.42
0.245
0.055
-0.16
-0.065
0.015
-0.03
-0.08
0.04
-0.08
-0.215
-0.115
-0.065
-0.06
-0.085
-0.035
-0.19
-0.01
-0.075
-0.265
-0.155
-0.125
-0.13
-0.005
-0.125
-0.11
-0.065
-0.01
-0.025
-0.005
0.04
-0.02
0.15
0.055
-0.19
-0.16
-0.085
-0.025
-0.005
-0.095
0.1
0.03
-0.11
-0.115
0.075
0.045
-0.095
0.055
0.005
0.06
0.075
0.095
-0.055
-0.005
-0.015
-0.1
0.0
-0.135
-0.085
-0.05
-0.085
-0.05
0.0
-0.01
-0.14
-0.12
-0.43
0.195
1.165
0.86
0.66
0.4
0.215
0.065
0.005
0.025
-0.08
0.035
0.08
-0.205
-0.145
-0.055
-0.1
-0.05
-0.09
-0.175
-0.165
-0.185
-0.155
-0.13
-0.165
-0.1
-0.09
-0.145
-0.205
-0.015
0.045
-0.135
-0.085
-0.01
-0.035
0.015
-0.02
0.035
-0.07
-0.075
0.0
0.0
-0.055
0.02
-0.04
-0.01
-0.02
-0.115
-0.095
-0.025
0.02
-0.035
-0.055
0.015
0.01
-0.035
0.08
0.055
0.075
0.055
0.055
-0.045
-0.07
-0.08
-0.055
-0.025
-0.03
-0.04
-0.08
0.005
-0.11
-0.12
-0.095
-0.14
-0.225
-0.32
0.43
1.06
0.795
0.705
0.555
0.295
0.21
-0.095
-0.175
-0.105
-0.055
-0.025
-0.085
-0.055
-0.04
-0.085
0.025
-0.165
-0.17
-0.075
-0.155
-0.16
-0.15
-0.065
-0.1
-0.095
-0.15
-0.205
-0.06
0.0
-0.015
0.0
-0.005
0.03
0.02
-0.06
-0.035
-0.04
0.02
-0.015
0.015
0.05
-0.085
-0.02
-0.07
-0.045
-0.015
-0.03
-0.05
-0.05
0.07
-0.02
-0.045
0.06
-0.02
-0.175
-0.06
-0.025
0.035
-0.01
0.05
0.09
0.01
0.08
0.08
-0.065
-0.07
-0.065
-0.05
0.095
-0.02
-0.17
-0.075
-0.05
-0.02
-0.055
-0.065
-0.08
-0.26
-0.39
0.27
1.235
0.685
0.715
0.565
0.275
0.205
-0.05
-0.095
-0.065
-0.01
-0.08
-0.075
-0.115
0.005
-0.095
-0.015
-0.055
-0.225
-0.105
-0.075
-0.085
-0.18
-0.175
-0.1
-0.12
-0.095
-0.01
-0.135
-0.05
0.04
-0.01
-0.09
-0.03
0.075
-0.02
-0.045
-0.05
-0.02
0.015
0.05
-0.045
-0.015
0.045
0.055
-0.18
-0.075
-0.03
-0.025
0.035
-0.08
-0.035
-0.045
0.02
0.025
-0.13
-0.025
0.035
-0.04
-0.06
-0.105
-0.06
0.005
0.03
0.025
0.065
0.095
0.01
0.06
-0.08
-0.025
-0.025
-0.065
-0.06
-0.075
-0.09
-0.035
-0.075
-0.035
-0.065
0.085
-0.215
-0.2
-0.335
-0.095
1.105
0.765
0.82
0.62
0.37
0.19
0.115
-0.07
-0.035
0.0
-0.115
-0.12
-0.08
-0.06
-0.04
-0.05
-0.05
-0.095
-0.095
-0.035
-0.115
-0.15
-0.16
-0.07
-0.17
-0.075
-0.15
-0.055
-0.035
0.03
0.0
0.035
0.095
-0.065
-0.05
0.065
0.0
-0.025
-0.02
0.025
-0.01
0.035
0.09
-0.045
-0.085
0.015
0.0
-0.09
0.04
0.04
0.0
-0.04
0.01
0.0
0.055
0.005
-0.08
0.03
-0.02
-0.045
0.1
0.025
-0.045
-0.1
0.0
-0.01
0.05
0.015
0.115
0.09
0.1
0.08
0.145
0.055
-0.08
-0.015
-0.115
-0.02
0.005
-0.06
-0.01
-0.005
0.125
-0.085
-0.06
-0.065
-0.27
-0.375
0.125
1.155
0.665
0.715
0.64
0.33
0.03
-0.025
0.0
-0.025
-0.01
-0.075
-0.065
-0.07
-0.055
-0.025
0.0
-0.12
-0.19
-0.11
-0.14
-0.19
-0.15
-0.13
-0.115
-0.195
-0.1
-0.055
0.01
-0.095
-0.025
-0.045
-0.025
0.005
-0.06
0.0
-0.05
-0.055
0.08
-0.05
-0.07
0.05
-0.04
-0.025
0.045
-0.015
0.005
-0.13
0.045
0.0
0.025
0.045
0.025
0.045
-0.07
-0.045
0.03
0.26
0.03
0.065
0.065
0.035
0.015
0.02
-0.055
-0.095
-0.12
-0.065
-0.015
-0.04
0.01
0.13
0.0
-0.135
-0.095
-0.21
-0.27
0.33
0.995
0.785
0.615
0.41
0.32
0.0
-0.04
-0.015
-0.06
-0.105
-0.025
-0.06
-0.025
-0.045
-0.15
-0.15
-0.15
-0.04
0.015
-0.1
-0.145
-0.29
-0.205
-0.26
0.0
0.015
-0.205
-0.26
0.035
0.24
-0.275
-0.055
0.0
0.03
0.015
0.13
-0.155
-0.09
0.145
-0.105
0.12
-0.01
0.0
-0.055
0.175
-0.2
0.035
0.135
-0.09
0.37
-0.185
-0.26
0.045
0.18
0.28
0.21
0.1
-0.05
-0.04
0.18
-0.21
-0.1
-0.015
0.08
0.06
0.05
-0.075
0.015
-0.06
-0.15
-0.115
0.095
0.0
0.39
0.965
0.45
0.645
0.315
0.415
0.04
-0.125
0.015
-0.11
0.16
-0.17
0.09
-0.29
-0.23
-0.115
0.135
0.115
-0.45
0.015
-0.295
-0.37
-0.165
0.3
-0.37
-0.44
-0.275
-0.18
-0.01
-0.135
-0.01
-0.06
0.295
-0.37
-0.165
-0.03
0.295
-0.41
-0.09
-0.06
0.1
0.2
-0.12
0.025
0.01
-0.175
0.015
0.03
-0.145
0.105
0.05
0.19
-0.115
-0.175
-0.1
0.47
0.05
0.01
-0.085
0.33
-0.345
-0.165
-0.165
-0.03
-0.055
-0.055
-0.03
0.005
0.23
-0.385
-0.395
-0.125
0.425
0.78
0.29
1.09
0.34
-0.51
0.345
0.315
-0.315
0.0
0.58
-0.58
-0.08
-0.31
0.335
0.065
-0.235
-0.085
0.015
-0.475
-0.22
0.475
-0.105
-0.695
0.23
-0.38
-0.02
0.025
-0.05
0.0
0.13
0.12
-0.36
-0.125
-0.035
0.46
-0.535
-0.03
-0.19
0.75
-0.46
0.1
-0.375
0.21
0.12
-0.12
0.16
-0.34
0.28
-0.145
0.18
-0.15
0.295
-0.4
0.745
0.295
-0.435
-0.045
-0.16
0.455
-0.285
-0.45
0.21
0.325
-0.04
-0.46
0.015
-0.035
0.005
-0.135
-0.37
-0.005
0.95
1.14
-0.175
0.47
0.275
0.36
0.565
-0.54
-0.455
-0.22
0.43
-0.455
0.11
-0.115
-0.11
0.005
0.0
-0.28
-0.015
-0.395
0.14
0.48
-1.015
0.305
-0.215
-0.17
-0.15
0.085
-0.115
0.19
-0.1
-0.15
0.13
0.325
-0.3
-0.04
-0.18
0.32
-0.04
-0.185
0.275
0.085
0.225
-0.645
0.52
-0.545
0.135
0.29
0.155
-0.06
-0.065
0.11
-0.175
0.26
-0.11
0.815
-0.315
0.525
0.725
-0.965
-0.185
-0.23
0.26
-0.035
-0.2
0.45
-0.205
0.26
-0.24
-0.23
0.055
0.02
0.58
0.535
0.95
0.42
-0.035
0.655
-0.515
0.305
-0.225
0.1
0.08
-0.475
0.485
-0.43
0.17
-0.24
-0.18
-0.13
-0.065
0.435
-0.21
-0.41
-0.04
-0.2
-0.5
0.125
0.05
-0.52
-0.175
0.265
0.635
-0.29
-0.33
-0.135
-0.02
0.04
0.305
-0.35
0.65
-0.34
0.045
0.185
-0.6
0.185
-0.26
0.74
-0.425
0.265
0.395
-0.595
-0.22
0.34
0.24
0.07
0.18
0.04
0.43
-0.055
-0.15
-0.17
0.06
-0.095
-0.05
0.225
0.3
-0.59
-0.02
-0.055
0.33
-0.03
-0.675
0.595
0.76
0.955
0.43
0.31
0.0
-0.07
0.07
0.255
-0.565
0.195
-0.195
0.23
-0.275
0.17
-0.19
-0.29
0.21
-0.045
-0.23
-0.33
0.05
-0.28
0.05
-0.365
-0.175
0.03
-0.18
0.04
-0.38
-0.05
0.24
-0.14
0.765
-0.655
-0.14
0.07
0.11
-0.025
0.13
0.0
-0.125
-0.02
0.25
-0.215
-0.015
-0.2
0.045
0.195
-0.105
0.0
0.425
0.315
-0.11
-0.13
0.045
0.355
-0.375
0.165
0.165
-0.18
-0.285
0.055
-0.04
0.355
-0.4
-0.055
0.065
0.08
-0.27
-0.17
0.345
0.835
0.55
0.45
0.9
-0.535
-0.04
0.4
-0.38
0.035
0.055
-0.075
0.0
-0.025
-0.3
0.08
-0.095
-0.2
0.285
-0.575
0.115
-0.23
-0.215
-0.22
-0.005
-0.25
0.005
-0.38
0.05
-0.02
-0.155
0.485
-0.31
-0.195
-0.025
0.165
-0.18
0.105
0.135
-0.095
-0.035
-0.07
-0.12
0.19
0.185
-0.295
-0.035
-0.155
0.24
-0.045
0.025
-0.07
0.225
0.265
0.075
0.465
-0.21
0.145
-0.22
0.005
-0.285
0.065
-0.125
0.2
-0.265
0.215
-0.05
-0.24
0.08
-0.09
0.09
-0.29
0.68
0.485
0.89
0.29
0.12
0.025
0.06
0.14
-0.165
0.07
-0.135
-0.025
-0.165
-0.115
-0.14
-0.055
0.055
-0.23
-0.09
-0.215
-0.11
-0.06
-0.045
-0.335
0.075
-0.135
-0.1
-0.04
-0.305
-0.06
0.05
-0.045
-0.1
0.045
-0.015
0.21
-0.19
-0.09
-0.115
-0.09
0.14
-0.065
-0.005
0.06
-0.22
-0.02
0.08
-0.1
-0.075
0.005
0.285
-0.025
-0.235
0.085
0.13
0.14
0.165
0.165
-0.125
-0.09
-0.03
-0.15
0.095
-0.03
0.03
-0.215
-0.24
-0.03
-0.13
0.095
-0.19
0.115
-0.315
0.215
0.8
0.725
0.435
0.185
0.295
-0.02
-0.1
-0.14
-0.045
0.09
-0.21
-0.12
0.09
-0.145
0.06
-0.335
-0.18
0.165
-0.21
-0.165
0.0
-0.1
-0.1
-0.215
-0.055
0.11
-0.1
-0.095
-0.075
-0.12
0.195
-0.135
-0.105
-0.02
0.205
-0.05
-0.17
0.095
-0.07
-0.02
-0.11
-0.05
0.05
0.035
-0.06
-0.09
-0.065
0.085
-0.065
-0.075
0.085
-0.04
0.085
0.0
-0.2
0.075
-0.03
-0.115
-0.14
0.025
-0.21
-0.155
0.255
-0.255
0.135
0.205
-0.34
0.045
-0.065
0.085
0.205
-0.12
-0.1
-0.065
-0.075
-0.145
-0.125
-0.16
-0.105
0.015
-0.045
-0.005
0.025
-0.175
-0.28
-0.09
0.805
1.065
0.405
0.455
0.22
-0.055
0.075
0.02
-0.085
-0.05
0.0
0.175
-0.12
-0.185
-0.025
-0.16
0.035
-0.125
-0.07
-0.005
-0.05
-0.195
-0.02
0.08
-0.085
-0.175
-0.08
-0.01
0.02
0.06
0.055
-0.06
0.17
-0.055
-0.235
0.1
-0.1
-0.01
-0.025
-0.09
-0.05
0.0
0.205
-0.13
-0.045
0.095
0.02
0.12
-0.015
-0.265
-0.12
-0.085
-0.125
-0.175
0.15
0.02
-0.14
-0.21
-0.045
0.035
-0.07
-0.075
-0.055
0.005
0.07
0.055
-0.085
0.02
0.0
-0.09
-0.045
-0.135
-0.1
0.05
-0.385
-0.1
-0.095
-0.07
-0.035
-0.005
-0.325
-0.19
-0.24
0.15
0.44
0.655
0.84
0.325
0.085
0.195
-0.155
0.005
-0.155
-0.175
0.07
-0.085
-0.12
-0.265
-0.22
-0.045
-0.14
-0.135
-0.125
-0.01
0.0
-0.125
-0.07
0.01
0.05
-0.14
-0.24
2.525
3.38
0.245
0.49
-0.95
-1.795
-0.375
0.015
0.26
0.03
0.12
0.185
0.025
0.23
-0.02
-0.01
0.645
0.18
-0.6
-0.255
0.01
0.06
-0.005
0.0
0.135
-0.46
-0.17
0.02
0.405
0.13
-0.31
-0.39
-0.12
-0.035
-0.005
0.105
0.67
-0.25
-0.1
0.08
0.045
0.455
-0.52
1.3
-0.605
-0.3
-0.35
-0.26
0.0
-0.16
1.075
-0.27
-0.33
0.22
-0.36
-0.26
1.03
0.65
0.835
0.63
0.515
0.265
-0.165
-0.015
0.045
0.0
0.24
0.265
-0.215
0.01
0.005
-0.15
-0.15
-0.055
-0.145
0.06
0.27
-0.515
-0.325
-0.22
-0.34
-0.23
-0.155
-0.38
-0.29
-0.135
-0.14
-0.12
-0.165
-0.145
-0.165
-0.005
-0.125
0.01
-0.065
-0.005
-0.3
-0.24
-0.115
-0.215
-0.025
-0.17
-0.22
-0.2
-0.255
-0.01
-0.285
0.07
-0.295
-0.285
-0.155
-0.125
-0.27
-0.235
0.38
-0.25
-0.515
-0.145
-0.1
-0.12
0.165
-0.135
0.015
0.05
-0.185
-0.125
-0.04
-0.11
-0.12
0.025
-0.16
0.27
0.0
-0.13
-0.33
-0.065
-0.34
-0.345
1.37
0.515
0.76
0.535
0.325
0.08
0.04
-0.085
-0.175
0.08
-0.22
0.2
-0.03
-0.32
-0.155
0.155
-0.115
-0.365
-0.11
-0.235
-0.225
-0.135
0.005
-0.19
-0.05
0.06
-0.3
0.23
0.0
-0.22
-0.04
-0.05
-0.08
-0.07
0.075
0.09
-0.235
-0.125
0.0
-0.105
0.085
0.03
-0.18
-0.025
-0.21
0.0
-0.165
-0.185
-0.085
-0.05
0.045
-0.14
-0.045
-0.125
0.195
0.21
-0.08
0.1
0.06
-0.245
-0.105
-0.025
-0.185
-0.085
-0.165
-0.02
-0.035
-0.05
-0.115
0.105
-0.09
-0.275
-0.13
-0.265
1.475
1.38
0.025
0.29
0.39
0.15
-0.05
0.09
-0.05
-0.06
-0.18
-0.095
-0.005
-0.185
-0.15
-0.11
-0.11
-0.02
0.345
-0.235
-0.425
-0.355
-0.235
-0.215
-0.065
-0.335
-0.1
-0.04
-0.195
0.16
-0.16
-0.025
0.165
-0.16
0.005
0.025
0.0
0.285
-0.05
-0.15
0.385
0.315
-0.67
-0.24
-0.11
-0.085
-0.04
-0.11
-0.075
0.065
-0.14
0.2
0.14
-0.285
-0.095
0.03
0.025
0.065
0.0
-0.01
0.26
0.205
-0.385
-0.105
0.335
-0.34
-0.265
-0.125
-0.165
-0.01
0.07
-0.195
0.015
-0.125
0.775
0.745
0.59
0.77
0.625
0.08
-0.115
0.205
-0.125
0.175
-0.09
-0.175
-0.135
-0.165
-0.18
-0.01
-0.11
-0.225
-0.15
-0.11
-0.175
-0.175
-0.185
-0.15
-0.255
-0.075
-0.14
-0.14
0.075
-0.14
-0.08
-0.005
-0.035
-0.06
0.035
0.02
-0.01
-0.01
0.1
-0.04
-0.05
-0.015
0.01
0.035
-0.08
-0.1
-0.05
0.055
0.075
-0.115
-0.03
0.08
0.05
0.11
0.09
0.03
0.11
0.035
-0.015
0.11
-0.15
-0.145
-0.045
-0.105
-0.075
-0.02
0.025
0.015
-0.105
-0.15
-0.24
0.485
1.045
0.86
0.6
0.535
0.31
0.095
0.16
-0.04
-0.095
-0.125
-0.115
-0.085
-0.07
-0.06
-0.05
-0.05
-0.125
-0.195
-0.125
-0.185
-0.175
-0.13
-0.15
-0.145
-0.22
-0.175
-0.065
-0.08
0.0
0.02
-0.02
-0.05
-0.01
0.005
0.025
0.01
0.055
0.07
-0.03
0.03
0.015
0.06
0.025
0.0
0.005
-0.025
0.055
0.045
0.01
0.09
0.16
0.215
0.22
0.03
0.02
-0.045
0.0
0.0
-0.015
-0.04
0.01
-0.025
0.035
-0.08
0.15
-0.04
-0.22
-0.27
-0.145
0.96
0.845
0.89
0.765
0.4
0.04
-0.005
0.04
-0.02
0.125
0.025
-0.03
-0.16
-0.08
-0.095
-0.11
-0.09
-0.1
-0.07
-0.07
-0.045
-0.165
-0.105
-0.115
-0.105
-0.185
-0.15
-0.045
0.025
-0.085
-0.05
-0.005
-0.09
0.005
0.13
0.015
-0.06
0.355
0.485
-0.195
0.045
0.18
-0.505
-0.37
-0.155
-0.085
-0.045
0.095
0.1
0.12
0.095
0.23
0.02
0.01
-0.005
0.06
0.025
0.0
0.12
0.02
-0.13
-0.03
-0.08
0.03
-0.16
-0.23
-0.03
0.15
1.19
0.745
0.535
0.075
0.1
0.025
-0.075
-0.055
0.015
0.035
-0.255
-0.085
-0.235
-0.075
-0.16
-0.2
-0.195
-0.07
-0.16
-0.15
-0.21
0.005
-0.09
-0.31
-0.24
-0.125
-0.09
-0.095
0.01
-0.11
0.02
0.005
-0.065
-0.05
0.03
-0.06
-0.065
-0.03
-0.04
-0.025
0.185
0.1
-0.095
-0.175
-0.07
-0.06
-0.025
0.05
0.09
0.145
0.2
0.155
-0.07
-0.11
-0.06
-0.07
-0.1
-0.015
0.105
-0.15
-0.11
-0.065
-0.08
-0.015
-0.11
-0.29
-0.355
0.59
0.9
0.755
0.615
0.42
0.165
-0.12
-0.08
-0.06
-0.06
-0.06
0.025
-0.26
-0.015
0.155
-0.415
-0.32
-0.18
-0.16
-0.14
-0.125
-0.15
-0.165
-0.165
-0.15
-0.115
-0.08
-0.05
-0.06
-0.005
-0.05
-0.08
-0.01
0.0
-0.05
0.09
-0.055
-0.2
-0.115
-0.08
-0.075
-0.04
-0.035
-0.025
-0.065
-0.15
-0.01
-0.06
-0.125
-0.075
0.04
0.035
0.085
0.02
0.075
0.03
0.05
-0.16
-0.095
-0.095
-0.06
-0.075
-0.105
-0.095
-0.08
-0.085
-0.045
-0.08
-0.175
-0.23
-0.155
0.865
0.785
0.895
0.61
0.32
0.16
0.035
0.05
0.0
0.0
-0.035
0.075
-0.035
-0.015
0.0
-0.065
-0.135
-0.065
-0.075
-0.065
-0.02
-0.13
-0.135
0.035
-0.045
-0.175
-0.015
-0.05
-0.09
0.0
-0.01
0.085
0.045
0.0
-0.035
0.005
-0.015
0.02
0.005
-0.015
-0.005
-0.005
-0.04
-0.075
-0.03
-0.01
-0.02
-0.015
-0.02
-0.1
-0.01
0.02
0.02
0.11
0.035
0.005
-0.06
-0.035
-0.125
-0.055
-0.12
-0.105
-0.09
-0.105
-0.07
-0.06
-0.095
-0.075
-0.17
-0.19
-0.21
0.16
1.015
0.625
0.61
0.5
0.285
0.035
-0.015
-0.04
-0.08
-0.045
-0.095
-0.055
-0.06
-0.095
-0.08
-0.095
-0.12
-0.13
-0.135
-0.16
-0.07
-0.12
-0.255
-0.165
-0.2
-0.23
-0.12
-0.03
-0.13
-0.06
0.0
-0.025
0.175
0.15
-0.145
-0.115
0.0
0.04
-0.02
-0.085
0.07
-0.005
-0.06
0.36
-0.07
-0.255
-0.18
-0.085
0.01
-0.1
-0.06
-0.03
0.005
0.02
0.15
0.01
0.08
0.08
-0.075
-0.05
-0.04
-0.065
-0.11
-0.095
-0.055
0.025
-0.14
0.09
0.075
-0.25
-0.28
-0.18
-0.285
0.31
1.015
0.705
0.62
0.33
0.16
0.225
-0.03
-0.215
-0.04
-0.025
-0.145
-0.14
-0.08
-0.07
-0.03
-0.085
-0.085
-0.135
-0.07
-0.035
-0.17
-0.05
0.095
-0.135
-0.155
0.05
-0.12
-0.13
-0.055
-0.03
0.09
0.08
0.01
-0.11
-0.105
-0.08
-0.08
0.045
-0.055
-0.065
0.12
0.075
-0.05
-0.125
0.05
-0.14
-0.17
-0.1
-0.015
0.02
0.075
0.0
0.185
0.22
-0.065
-0.035
0.1
0.08
-0.085
-0.015
0.23
-0.02
-0.15
-0.085
-0.185
-0.17
-0.065
0.05
-0.06
-0.11
-0.15
-0.195
0.095
0.855
0.69
0.665
0.51
0.26
0.035
-0.045
0.06
0.05
-0.135
-0.135
0.005
-0.135
-0.05
-0.085
0.01
-0.1
-0.11
-0.065
-0.165
-0.125
-0.045
0.06
-0.16
-0.11
-0.075
-0.04
0.085
-0.02
-0.05
-0.06
-0.015
0.085
0.07
-0.175
-0.055
-0.145
0.04
-0.025
-0.13
0.02
-0.115
-0.07
0.085
-0.135
0.06
0.075
-0.19
-0.015
-0.015
-0.18
0.005
0.05
-0.13
-0.035
0.01
0.06
0.15
0.145
0.055
0.0
0.08
-0.005
-0.125
-0.16
-0.05
-0.16
-0.085
-0.1
0.01
0.0
-0.045
-0.05
-0.21
-0.36
0.075
1.13
0.72
0.685
0.51
0.27
0.085
0.005
0.015
-0.1
-0.07
0.11
-0.105
-0.185
-0.075
-0.115
-0.085
-0.095
-0.055
0.065
-0.04
-0.255
-0.165
-0.175
-0.105
-0.105
0.03
-0.14
0.025
0.11
-0.065
-0.045
-0.105
-0.015
-0.01
-0.045
0.12
0.0
-0.215
-0.115
0.01
-0.03
-0.085
-0.045
0.035
0.02
-0.12
-0.05
0.05
-0.07
-0.06
-0.035
-0.035
-0.055
-0.005
0.09
-0.04
0.03
0.055
0.135
0.105
-0.015
-0.075
-0.08
-0.17
-0.075
-0.065
-0.065
-0.025
-0.125
-0.02
0.06
-0.165
-0.095
-0.32
-0.25
0.77
0.92
0.76
0.51
0.295
0.195
0.135
-0.24
-0.11
0.015
-0.09
-0.135
-0.1
-0.04
-0.065
-0.125
0.02
0.03
-0.23
-0.165
-0.18
-0.125
-0.075
-0.095
-0.2
-0.105
-0.09
-0.075
0.03
-0.105
0.09
0.105
-0.17
-0.135
-0.04
-0.015
-0.085
-0.08
0.025
0.035
-0.15
0.045
-0.185
-0.065
0.105
-0.23
-0.045
-0.055
-0.09
-0.005
0.175
-0.11
-0.085
0.105
0.185
0.07
0.04
0.055
-0.12
-0.02
0.08
-0.205
-0.165
-0.125
-0.065
-0.05
0.045
-0.09
-0.16
-0.06
-0.185
-0.405
0.3
1.315
0.59
0.47
0.365
0.19
0.105
0.0
-0.005
-0.155
-0.045
-0.09
-0.165
-0.07
-0.13
-0.14
-0.095
-0.085
-0.14
-0.135
-0.08
-0.11
-0.1
-0.235
-0.09
-0.105
-0.1
-0.06
-0.035
-0.03
-0.075
0.01
-0.085
0.015
0.045
-0.075
-0.095
0.12
-0.035
0.0
-0.06
-0.145
-0.01
-0.04
-0.035
-0.02
-0.02
-0.075
-0.07
0.045
-0.01
-0.02
0.06
0.175
0.19
0.11
0.0
-0.015
0.0
-0.08
-0.115
-0.035
-0.09
-0.005
-0.1
0.16
-0.12
-0.125
-0.125
-0.265
-0.23
-0.025
1.29
0.52
0.585
0.64
0.285
0.06
-0.04
-0.03
-0.065
-0.055
-0.07
-0.04
0.0
-0.045
-0.17
-0.085
-0.16
-0.115
-0.14
-0.065
-0.14
-0.12
-0.035
-0.07
-0.225
-0.115
-0.135
-0.08
-0.01
0.04
-0.055
-0.12
-0.035
0.005
-0.005
0.0
0.005
-0.075
0.08
-0.04
-0.105
-0.075
0.035
-0.06
-0.07
-0.07
0.05
-0.07
0.035
0.05
-0.04
0.04
0.09
0.145
0.1
0.105
0.105
-0.11
-0.13
-0.09
-0.03
-0.1
-0.03
-0.04
-0.07
-0.07
-0.005
-0.105
-0.21
-0.22
-0.045
1.0
0.765
0.71
0.565
0.31
0.055
-0.015
-0.005
-0.055
-0.04
-0.04
-0.065
0.07
-0.135
-0.23
-0.065
-0.16
-0.08
-0.12
-0.115
-0.125
-0.15
-0.135
-0.09
-0.085
-0.185
-0.09
-0.04
-0.04
0.0
0.015
0.0
-0.03
-0.015
0.0
0.015
0.015
0.04
0.035
-0.05
0.025
-0.025
-0.045
-0.095
0.0
-0.02
0.01
0.02
0.0
-0.025
-0.07
0.075
0.07
0.07
0.155
0.2
0.005
0.04
-0.13
0.02
0.01
-0.065
-0.095
0.125
-0.175
-0.11
0.065
0.155
-0.375
-0.175
0.09
0.045
0.67
0.615
0.69
0.525
0.49
0.185
-0.095
0.12
0.09
-0.085
-0.145
-0.09
0.03
-0.14
-0.195
-0.09
-0.1
-0.1
-0.125
-0.185
-0.12
-0.12
-0.14
-0.14
-0.12
-0.12
-0.125
-0.065
-0.03
0.0
0.0
0.02
-0.005
0.01
0.0
0.0
-0.01
0.005
0.015
-0.02
0.005
0.0
-0.045
-0.025
-0.035
0.005
0.0
-0.02
0.18
0.1
-0.035
0.07
0.08
0.1
-0.01
-0.015
-0.055
-0.01
-0.04
-0.005
-0.05
-0.025
-0.075
-0.035
-0.055
-0.025
-0.085
-0.195
-0.145
-0.125
0.74
0.82
0.715
0.7
0.485
0.085
-0.095
-0.075
-0.085
-0.07
-0.1
-0.105
-0.095
-0.095
-0.105
-0.09
-0.13
-0.16
-0.15
-0.16
-0.225
-0.18
-0.18
-0.215
-0.285
-0.155
-0.175
-0.135
-0.08
-0.1
-0.06
-0.03
0.005
0.0
-0.01
-0.01
-0.015
0.005
-0.01
0.005
-0.01
-0.005
-0.05
-0.035
-0.035
-0.005
0.015
0.0
-0.02
0.025
0.065
0.05
0.13
0.135
0.04
-0.005
-0.045
-0.065
-0.085
-0.07
-0.09
-0.06
-0.08
-0.07
-0.065
-0.06
-0.035
-0.14
-0.18
-0.225
0.43
0.895
0.755
0.595
0.335
0.12
-0.015
-0.045
-0.025
-0.07
-0.085
-0.075
-0.075
-0.12
-0.115
-0.105
-0.09
-0.115
-0.11
-0.115
-0.155
-0.145
-0.145
-0.125
-0.08
-0.06
-0.07
-0.055
-0.055
-0.02
-0.025
-0.01
-0.025
-0.08
-0.065
-0.005
-0.03
-0.075
-0.05
-0.04
-0.04
-0.04
-0.015
-0.05
-0.05
-0.015
-0.105
-0.055
0.02
0.02
0.03
0.045
0.155
0.115
0.045
-0.08
-0.04
-0.065
-0.07
-0.045
-0.03
0.045
-0.175
-0.155
-0.055
-0.02
-0.18
0.035
-0.105
-0.36
0.47
1.09
0.705
0.54
0.27
0.33
0.12
-0.155
-0.17
-0.13
0.045
-0.105
-0.05
0.065
-0.08
-0.08
-0.09
-0.23
-0.065
-0.12
-0.04
-0.055
-0.07
-0.125
-0.045
-0.02
0.175
0.045
0.075
-0.06
-0.165
0.195
-0.165
-0.005
0.02
0.0
-0.155
-0.045
0.09
-0.065
0.0
-0.03
-0.125
-0.07
-0.01
-0.02
-0.055
-0.025
-0.06
-0.02
-0.11
0.06
0.06
-0.1
0.145
0.105
-0.075
0.105
0.025
-0.045
-0.045
-0.115
0.12
-0.235
-0.255
-0.06
-0.01
-0.07
0.0
0.085
-0.27
-0.15
-0.19
0.045
0.92
1.005
0.515
0.53
0.415
0.01
0.115
-0.12
-0.005
0.06
-0.245
-0.14
0.035
-0.18
-0.1
0.015
-0.055
-0.06
0.02
-0.07
-0.185
0.0
-0.17
-0.095
-0.065
-0.19
-0.085
-0.045
0.06
0.02
-0.025
0.0
-0.1
-0.015
-0.06
-0.015
-0.085
-0.045
0.09
-0.11
-0.015
-0.06
-0.08
-0.03
-0.02
-0.005
-0.06
0.01
-0.06
-0.03
-0.045
-0.06
-0.015
0.135
-0.045
0.04
0.185
-0.035
0.045
-0.035
-0.005
-0.095
-0.07
-0.025
-0.085
-0.08
-0.055
-0.09
-0.09
-0.02
-0.02
-0.19
-0.205
-0.29
0.13
1.17
0.8
0.635
0.52
0.3
0.075
-0.04
0.02
-0.06
-0.075
0.07
-0.175
-0.135
0.04
-0.125
-0.08
-0.095
-0.055
-0.105
-0.07
-0.135
-0.165
-0.19
-0.04
-0.02
-0.155
-0.085
-0.01
-0.005
-0.045
-0.005
0.02
0.07
-0.055
-0.09
0.0
-0.05
0.02
-0.02
-0.04
-0.03
-0.005
-0.01
-0.035
-0.015
-0.04
-0.01
0.01
-0.09
-0.07
-0.02
-0.06
0.0
-0.055
-0.05
-0.015
0.095
-0.035
0.025
0.055
0.07
0.055
0.075
-0.065
-0.08
-0.055
-0.025
-0.115
-0.06
-0.045
-0.06
-0.135
-0.06
-0.045
-0.08
-0.125
-0.195
-0.23
0.18
1.215
0.755
0.715
0.5
0.255
0.12
-0.01
-0.005
-0.05
-0.03
-0.095
-0.035
-0.085
-0.035
-0.085
-0.085
-0.145
-0.07
-0.075
-0.095
-0.15
-0.12
-0.085
-0.11
-0.105
-0.08
-0.085
-0.025
-0.01
0.015
-0.035
-0.05
0.04
-0.05
-0.015
0.015
-0.045
-0.005
-0.05
-0.015
-0.025
-0.02
-0.04
-0.075
-0.005
-0.005
-0.095
-0.025
0.0
-0.04
-0.005
-0.07
-0.085
-0.07
-0.025
-0.065
-0.025
-0.03
0.02
-0.04
0.075
0.05
-0.01
0.05
-0.005
-0.02
-0.06
-0.075
-0.035
-0.075
0.005
-0.12
0.0
-0.165
-0.06
-0.105
-0.01
-0.095
-0.22
-0.245
0.2
1.235
0.745
0.705
0.515
0.255
0.075
0.0
-0.06
-0.005
-0.105
-0.03
-0.06
-0.09
-0.08
-0.105
-0.09
-0.115
-0.105
-0.115
-0.075
-0.095
-0.135
-0.175
-0.1
-0.06
-0.075
-0.065
-0.03
0.0
0.01
-0.04
-0.035
0.035
0.045
-0.13
-0.01
-0.01
0.005
0.04
-0.14
-0.01
-0.02
-0.04
0.025
-0.06
-0.065
0.015
-0.025
-0.13
-0.015
0.025
-0.065
0.005
-0.14
-0.05
-0.09
-0.015
0.03
-0.03
-0.03
0.1
0.035
0.075
0.21
-0.09
-0.1
-0.01
-0.095
-0.02
-0.095
0.03
-0.16
-0.035
-0.08
-0.06
-0.13
-0.035
-0.035
-0.215
-0.15
-0.16
0.985
0.95
0.66
0.555
0.445
0.16
0.015
-0.03
-0.085
-0.05
-0.01
-0.06
-0.105
